Time [hr];Shelf Temperature [C];Product Temperature [C]
0.0;-35.0;15.8
0.01;-34.4;15.799921570601875
0.02;-33.8;15.799844073061834
0.03;-33.199999999999996;15.79976750754286
0.04;-32.599999999999994;15.799691873986745
0.05;-31.999999999999993;15.79961717239349
0.06;-31.39999999999999;15.799543402704884
0.07;-30.79999999999999;15.799470564979138
0.08;-30.19999999999999;15.799398659274459
0.09;-29.599999999999987;15.799327685416223
0.1;-28.999999999999986;15.799257643520846
0.11;-28.399999999999984;15.799188533646536
0.12;-27.799999999999983;15.799120355618669
0.13;-27.19999999999998;15.799053109553661
0.14;-26.59999999999998;15.798986795451512
0.15;-25.99999999999998;15.798921413254014
0.16;-25.399999999999977;15.798856963019375
0.17;-24.799999999999976;15.798793444747595
0.18;-24.199999999999974;15.798730858380466
0.19;-23.599999999999973;15.798669203976196
0.2;-22.99999999999997;15.798608481476577
0.21;-22.39999999999997;15.79854869088161
0.22;-21.79999999999997;15.798489832249501
0.23;-21.199999999999967;15.798431905522044
0.24;-20.599999999999966;15.798374910699238
0.25;-21.199999999999967;14.59837491072252
0.26;-21.79999999999997;14.598318847816003
0.27;-22.39999999999997;14.598261853237666
0.28;-22.99999999999997;14.598203926871093
0.29;-23.599999999999973;14.598145068774492
0.3;-24.199999999999974;14.598085278889656
0.31;-24.799999999999976;14.598024557332998
0.32;-25.399999999999977;14.597962903988105
0.33;-25.99999999999998;14.597900318854975
0.34;-26.59999999999998;14.597836802108233
0.35000000000000003;-27.19999999999998;14.597772353515047
0.36;-27.799999999999983;14.597706973250041
0.37;-28.399999999999984;14.597640661255006
0.38;-28.999999999999986;14.597573417471736
0.39;-29.599999999999987;14.597505242016645
0.4;-30.19999999999999;14.597436134773318
0.41000000000000003;-30.79999999999999;14.59736609585817
0.42;-31.39999999999999;14.597295125212995
0.43;-31.999999999999993;14.597223222779583
0.44;-32.599999999999994;14.59715038867435
0.45;-33.199999999999996;14.59707662283909
0.46;-33.8;14.597001925273801
0.47000000000000003;-34.4;14.596926296036692
0.48;-35.0;14.596849735011347
0.49;-35.6;14.59677224231418
0.5;-36.2;14.596693817886987
0.51;-36.800000000000004;14.596614461787972
0.52;-37.400000000000006;14.59653417395893
0.53;-38.00000000000001;14.596452954399858
0.54;-38.60000000000001;14.596370803110759
0.55;-39.20000000000001;14.596287720149839
0.56;-39.80000000000001;14.59620370545889
0.5700000000000001;-40.40000000000001;14.596118759096122
0.58;-41.000000000000014;14.596032881003325
0.59;-41.600000000000016;14.595946071238707
0.6;-42.20000000000002;14.595858329744061
0.61;-42.80000000000002;14.595769656519387
0.62;-43.40000000000002;14.595680051622892
0.63;-44.00000000000002;14.595589515054577
0.64;-44.60000000000002;14.595498046814441
0.65;-45.200000000000024;14.595405646844277
0.66;-45.800000000000026;14.595312315202293
0.67;-46.40000000000003;14.595218051888487
0.68;-47.00000000000003;14.595122856844654
0.6900000000000001;-47.60000000000003;14.595026730070792
0.7000000000000001;-48.20000000000003;14.594929671683317
0.71;-48.80000000000003;14.594831681624022
0.72;-49.400000000000034;14.594732759834699
0.73;-50.000000000000036;14.594632906373555
0.74;-50.60000000000004;14.59453212124059
0.75;-51.20000000000004;14.594430404435805
0.76;-51.80000000000004;14.594327755959199
0.77;-52.40000000000004;14.594224175810773
0.78;-53.00000000000004;14.594119663932318
0.79;-53.600000000000044;14.59401422044025
0.8;-54.200000000000045;14.593907845218155
0.81;-54.80000000000005;14.593800538382446
0.8200000000000001;-55.40000000000005;14.593692299874917
0.8300000000000001;-56.00000000000005;14.593583129695567
0.84;-56.60000000000005;14.593473027844396
0.85;-57.20000000000005;14.593361994379613
0.86;-57.800000000000054;14.593250029184802
0.87;-58.400000000000055;14.59313713231817
0.88;-59.00000000000006;14.593023303837924
0.89;-59.60000000000006;14.592908543685859
0.9;-60.20000000000006;14.592792851861972
0.91;-60.80000000000006;14.592676228366265
0.92;-61.40000000000006;14.592558673256946
0.93;-62.000000000000064;14.592440186475805
0.9400000000000001;-62.600000000000065;14.592320768022844
0.9500000000000001;-63.20000000000007;14.59220041795627
0.96;-63.80000000000007;14.592079136276084
0.97;-64.40000000000006;14.591956922924084
0.98;-65.00000000000006;14.591833777900263
0.99;-65.60000000000005;14.591709701262829
1.0;-66.20000000000005;14.591584692953575
1.01;-66.80000000000004;14.5914587529725
1.02;-67.40000000000003;14.59133188143602
1.03;-68.00000000000003;14.591204078169511
1.04;-68.60000000000002;14.591075343347597
1.05;-69.20000000000002;14.590945676853863
1.06;-69.80000000000001;14.590815078746516
1.07;-70.4;14.590683548967348
1.08;-71.0;14.590551087574568
1.09;-71.6;14.590417694568174
1.1;-72.19999999999999;14.590283369948168
1.11;-72.79999999999998;14.59014811365634
1.12;-73.39999999999998;14.590011925809108
1.1300000000000001;-73.99999999999997;14.589874806231848
1.1400000000000001;-74.59999999999997;14.589736755099182
1.1500000000000001;-75.19999999999996;14.589597772352903
1.16;-75.79999999999995;14.589457857993011
1.17;-76.39999999999995;14.589317011961299
1.18;-76.99999999999994;14.589175234374181
1.19;-77.59999999999994;14.589032525173451
1.2;-78.19999999999993;14.5888888843009
1.21;-78.79999999999993;14.588744311872944
1.22;-79.39999999999992;14.588598807831374
1.23;-79.99999999999991;14.588452372176192
1.24;-80.59999999999991;14.58830500484919
1.25;-81.1999999999999;14.58815670602499
1.26;-81.7999999999999;14.58800747547076
1.27;-82.39999999999989;14.587857313419335
1.28;-82.99999999999989;14.587706219696088
1.29;-83.59999999999988;14.587554194417436
1.3;-84.19999999999987;14.587401237525171
1.31;-84.79999999999987;14.5872473490775
1.32;-85.39999999999986;14.58709252895801
1.33;-85.99999999999986;14.586936777283114
1.34;-86.59999999999985;14.586780093994605
1.35;-87.19999999999985;14.58662247915069
1.36;-87.79999999999984;14.586463932693164
1.37;-88.39999999999984;14.586304454680231
1.3800000000000001;-88.99999999999983;14.586144045053686
1.3900000000000001;-89.59999999999982;14.585982703813528
1.4000000000000001;-90.19999999999982;14.585820431017964
1.41;-90.79999999999981;14.585657226608788
1.42;-91.3999999999998;14.585493090702414
1.43;-91.9999999999998;14.58532802312422
1.44;-92.5999999999998;14.58516202399062
1.45;-93.19999999999979;14.584995093301615
1.46;-93.79999999999978;14.584827231057204
1.47;-94.39999999999978;14.584658437199181
1.48;-94.99999999999977;14.584488711727545
1.49;-95.59999999999977;14.584318054758711
1.5;-96.19999999999976;14.584146466176264
1.51;-96.79999999999976;14.58397394609662
1.52;-97.39999999999975;14.583800494403363
1.53;-97.99999999999974;14.583626111096493
1.54;-98.59999999999974;14.583450796292425
1.55;-99.19999999999973;14.583274549932952
1.56;-99.79999999999973;14.583097371959866
1.57;-100.39999999999972;14.582919262431375
1.58;-100.99999999999972;14.582740221405686
1.59;-101.59999999999971;14.582560248766384
1.6;-102.1999999999997;14.582379344571677
1.61;-102.7999999999997;14.582197508821565
1.62;-103.3999999999997;14.582014741574255
1.6300000000000001;-103.99999999999969;14.581831042713333
1.6400000000000001;-104.59999999999968;14.581646412297005
1.6500000000000001;-105.19999999999968;14.581460850383479
1.6600000000000001;-105.79999999999967;14.581274356914548
1.67;-106.39999999999966;14.581086931890212
1.68;-106.99999999999966;14.58089857531047
1.69;-107.59999999999965;14.580709287175324
1.7;-108.19999999999965;14.58051906754298
1.71;-108.79999999999964;14.58032791635523
1.72;-109.39999999999964;14.580135833670283
1.73;-109.99999999999963;14.579942819371723
1.74;-110.59999999999962;14.579748873517758
1.75;-111.19999999999962;14.579553996224803
1.76;-111.79999999999961;14.579358187376442
1.77;-112.39999999999961;14.579161446972677
1.78;-112.9999999999996;14.578963775013506
1.79;-113.5999999999996;14.578765171557137
1.8;-114.19999999999959;14.578565636603571
1.81;-114.79999999999959;14.5783651700946
1.82;-115.39999999999958;14.578163772030223
1.83;-115.99999999999957;14.577961442468649
1.84;-116.59999999999957;14.577758181409877
1.85;-117.19999999999956;14.5775539887957
1.86;-117.79999999999956;14.577348864684325
1.87;-118.39999999999955;14.577142809075752
1.8800000000000001;-118.99999999999955;14.576935821969982
1.8900000000000001;-119.59999999999954;14.576727903308807
1.9000000000000001;-120.19999999999953;14.576519053092227
1.9100000000000001;-120.79999999999953;14.576309271436656
1.92;-121.39999999999952;14.576098558283888
1.93;-121.99999999999952;14.575886913575715
1.94;-122.59999999999951;14.575674337370344
1.95;-123.1999999999995;14.575460829667776
1.96;-123.7999999999995;14.57524639046801
1.97;-124.3999999999995;14.575031019712839
1.98;-124.99999999999949;14.574814717518677
1.99;-125.59999999999948;14.574597483827318
2.0;-126.19999999999948;14.574379318638762
2.0100000000000002;-126.79999999999947;14.5741602218948
2.02;-127.39999999999947;14.573940193711849
2.0300000000000002;-127.99999999999946;14.5737192340317
2.04;-128.59999999999945;14.573497342796145
2.05;-129.19999999999945;14.573274520179808
2.06;-129.79999999999944;14.573050766008066
2.07;-130.39999999999944;14.572826080339127
2.08;-130.99999999999943;14.572600463231197
2.09;-131.59999999999943;14.57237391462607
2.1;-132.19999999999942;14.572146434523745
2.11;-132.79999999999941;14.571918022924223
2.12;-133.3999999999994;14.57168867988571
2.13;-133.9999999999994;14.57145840535
2.14;-134.5999999999994;14.571227199317093
2.15;-135.1999999999994;14.570995061786988
2.16;-135.7999999999994;14.570761992817893
2.17;-136.39999999999938;14.5705279923516
2.18;-136.99999999999937;14.570293060504525
2.19;-137.59999999999937;14.570057197043838
2.2;-138.19999999999936;14.569820402202367
2.21;-138.79999999999936;14.569582675921907
2.22;-139.39999999999935;14.56934401814425
2.23;-139.99999999999935;14.569104428869394
2.24;-140.59999999999934;14.56886390815555
2.25;-141.19999999999933;14.568622456002714
2.2600000000000002;-141.79999999999933;14.568380072352682
2.27;-142.39999999999932;14.568136757263659
2.2800000000000002;-142.99999999999932;14.567892510735646
2.29;-143.5999999999993;14.567647332710436
2.3000000000000003;-144.1999999999993;14.567401223246236
2.31;-144.7999999999993;14.567154182343046
2.32;-145.3999999999993;14.566906210000866
2.33;-145.9999999999993;14.566657306161488
2.34;-146.59999999999928;14.566407470941328
2.35;-147.19999999999928;14.566156704223971
2.36;-147.79999999999927;14.565905006067624
2.37;-148.39999999999927;14.565652376472286
2.38;-148.99999999999926;14.565398815379751
2.39;-149.59999999999926;14.565144322906434
2.4;-150.19999999999925;14.564888898994127
2.41;-150.79999999999924;14.56463254364283
2.42;-151.39999999999924;14.564375256852543
2.43;-151.99999999999923;14.564117038681474
2.44;-152.59999999999923;14.563857888954999
2.45;-153.19999999999922;14.563597807847742
2.46;-153.79999999999922;14.563336795359703
2.47;-154.3999999999992;14.563074851432674
2.48;-154.9999999999992;14.562811976008447
2.49;-155.5999999999992;14.562548169203438
2.5;-156.1999999999992;14.56228343095944
2.5100000000000002;-156.7999999999992;14.562017761334658
2.52;-157.39999999999918;14.56175116021268
2.5300000000000002;-157.99999999999918;14.561483627709919
2.54;-158.59999999999917;14.561215163768168
2.5500000000000003;-159.19999999999916;14.560945768445634
2.56;-159.79999999999916;14.560675441684111
2.57;-160.39999999999915;14.560404183541806
2.58;-160.99999999999915;14.56013199396051
2.59;-161.59999999999914;14.559858872940225
2.6;-162.19999999999914;14.559584820539158
2.61;-162.79999999999913;14.5593098366991
2.62;-163.39999999999912;14.559033921536468
2.63;-163.99999999999912;14.558757074876638
2.64;-164.5999999999991;14.558479296836026
2.65;-165.1999999999991;14.558200587414632
2.66;-165.7999999999991;14.557920946554248
2.67;-166.3999999999991;14.557640374313081
2.68;-166.9999999999991;14.557358870691132
2.69;-167.59999999999908;14.557076435630194
2.7;-168.19999999999908;14.556793069188473
2.71;-168.79999999999907;14.55650877136597
2.72;-169.39999999999907;14.556223542162684
2.73;-169.99999999999906;14.555937381520408
2.74;-170.59999999999906;14.55565028949735
2.75;-171.19999999999905;14.55536226609351
2.7600000000000002;-171.79999999999905;14.555073311367096
2.77;-172.39999999999904;14.554783425201691
2.7800000000000002;-172.99999999999903;14.554492607655504
2.79;-173.59999999999903;14.554200858728535
2.8000000000000003;-174.19999999999902;14.553908178362576
2.81;-174.79999999999902;14.553614566674042
2.82;-175.399999999999;14.553320023604726
2.83;-175.999999999999;14.553024549154628
2.84;-176.599999999999;14.552728143323748
2.85;-177.199999999999;14.552430806112085
2.86;-177.799999999999;14.552132537577847
2.87;-178.39999999999898;14.55183333760462
2.88;-178.99999999999898;14.55153320625061
2.89;-179.59999999999897;14.551232143574026
2.9;-180.19999999999897;14.55093014951666
2.91;-180.79999999999896;14.55062722407851
2.92;-181.39999999999895;14.550323367317787
2.93;-181.99999999999895;14.550018579176282
2.94;-182.59999999999894;14.549712859653994
2.95;-183.19999999999894;14.549406208809131
2.96;-183.79999999999893;14.549098626583486
2.97;-184.39999999999893;14.54879011297706
2.98;-184.99999999999892;14.548480668048057
2.99;-185.59999999999891;14.548170291738273
3.0;-186.1999999999989;14.547858984105915
3.0100000000000002;-186.7999999999989;14.547546745150981
3.02;-187.3999999999989;14.547233574757058
3.0300000000000002;-187.9999999999989;14.54691947304056
3.04;-188.5999999999989;14.546604440001488
3.0500000000000003;-189.19999999999888;14.546288475581633
3.06;-189.79999999999887;14.545971579897412
3.0700000000000003;-190.39999999999887;14.5456537527742
3.08;-190.99999999999886;14.545334994386621
3.09;-191.59999999999886;14.54501530461826
3.1;-192.19999999999885;14.544694683527325
3.11;-192.79999999999885;14.544373131113815
3.12;-193.39999999999884;14.544050647319523
3.13;-193.99999999999883;14.543727232260864
3.14;-194.59999999999883;14.543402885763214
3.15;-195.19999999999882;14.543077608059406
3.16;-195.79999999999882;14.542751398916607
3.17;-196.3999999999988;14.542424258509442
3.18;-196.9999999999988;14.542096186721494
3.19;-197.5999999999988;14.54176718366918
3.2;-198.1999999999988;14.541437249236083
3.21;-198.7999999999988;14.541106383596826
3.22;-199.39999999999878;14.54077458651858
3.23;-199.99999999999878;14.540441858175967
3.24;-200.59999999999877;14.540108198452572
3.25;-201.19999999999877;14.53977360746481
3.2600000000000002;-201.79999999999876;14.539438085154472
3.27;-202.39999999999876;14.53910163152156
3.2800000000000002;-202.99999999999875;14.538764246624282
3.29;-203.59999999999874;14.538425930346222
3.3000000000000003;-204.19999999999874;14.538086682803794
3.31;-204.79999999999873;14.537746503880584
3.3200000000000003;-205.39999999999873;14.537405393751214
3.33;-205.99999999999872;14.537063352241063
3.34;-206.59999999999872;14.536720379466544
3.35;-207.1999999999987;14.536376475427659
3.36;-207.7999999999987;14.536031640007991
3.37;-208.3999999999987;14.535685873323956
3.38;-208.9999999999987;14.535339175317347
3.39;-209.5999999999987;14.53499154604637
3.4;-210.19999999999868;14.53464298545282
3.41;-210.79999999999868;14.53429349365311
3.42;-211.39999999999867;14.53394307041441
3.43;-211.99999999999866;14.53359171596955
3.44;-212.59999999999866;14.533239430260323
3.45;-213.19999999999865;14.532886213228522
3.46;-213.79999999999865;14.532532064932354
3.47;-214.39999999999864;14.532176985313612
3.48;-214.99999999999864;14.531820974430502
3.49;-215.59999999999863;14.531464032283026
3.5;-216.19999999999862;14.531106158871182
3.5100000000000002;-216.79999999999862;14.530747354136764
3.52;-217.3999999999986;14.53038761813798
3.5300000000000002;-217.9999999999986;14.530026950874827
3.54;-218.5999999999986;14.5296653522891
3.5500000000000003;-219.1999999999986;14.529302822439007
3.56;-219.7999999999986;14.528939361324547
3.5700000000000003;-220.39999999999858;14.528574968945719
3.58;-220.99999999999858;14.528209645360732
3.59;-221.59999999999857;14.527843390453171
3.6;-222.19999999999857;14.527476204281243
3.61;-222.79999999999856;14.527108086844947
3.62;-223.39999999999856;14.526739038144285
3.63;-223.99999999999855;14.526369058179256
3.64;-224.59999999999854;14.52599814694986
3.65;-225.19999999999854;14.525626304456097
3.66;-225.79999999999853;14.525253530756174
3.67;-226.39999999999853;14.524879825791885
3.68;-226.99999999999852;14.524505189563229
3.69;-227.59999999999852;14.524129622070205
3.7;-228.1999999999985;14.523753123254608
3.71;-228.7999999999985;14.52337569323285
3.72;-229.3999999999985;14.522997332004934
3.73;-229.9999999999985;14.52261803951265
3.74;-230.5999999999985;14.522237815756
3.75;-231.19999999999848;14.52185666079319
3.7600000000000002;-231.79999999999848;14.521474574566014
3.77;-232.39999999999847;14.521091557132678
3.7800000000000002;-232.99999999999847;14.520707608376767
3.79;-233.59999999999846;14.520322728414698
3.8000000000000003;-234.19999999999845;14.519936917246469
3.81;-234.79999999999845;14.519550174813872
3.8200000000000003;-235.39999999999844;14.519162501175117
3.83;-235.99999999999844;14.518773896271995
3.84;-236.59999999999843;14.518384360162713
3.85;-237.19999999999843;14.517993892789065
3.86;-237.79999999999842;14.517602494209257
3.87;-238.3999999999984;14.51721016442329
3.88;-238.9999999999984;14.516816903372955
3.89;-239.5999999999984;14.516422711116462
3.9;-240.1999999999984;14.51602758765381
3.91;-240.7999999999984;14.51563153292679
3.92;-241.39999999999839;14.515234547051818
3.93;-241.99999999999838;14.51483662991248
3.94;-242.59999999999837;14.514437781566983
3.95;-243.19999999999837;14.514038001957118
3.96;-243.79999999999836;14.513637291199302
3.97;-244.39999999999836;14.513235649177119
3.98;-244.99999999999835;14.512833076006984
3.99;-245.59999999999835;14.512429571572483
4.0;-246.19999999999834;14.512025135931822
4.01;-246.79999999999833;14.51161976914321
4.0200000000000005;-247.39999999999833;14.51121347109023
4.03;-247.99999999999832;14.510806241889298
4.04;-248.59999999999832;14.510398081424
4.05;-249.1999999999983;14.509988989752543
4.0600000000000005;-249.7999999999983;14.509578966933134
4.07;-250.3999999999983;14.509168012907566
4.08;-250.9999999999983;14.50875612761763
4.09;-251.5999999999983;14.508343311237951
4.1;-252.19999999999828;14.507929563593905
4.11;-252.79999999999828;14.5075148847437
4.12;-253.39999999999827;14.507099274745542
4.13;-253.99999999999827;14.506682733541226
4.14;-254.59999999999826;14.506265261188958
4.15;-255.19999999999825;14.505846857572323
4.16;-255.79999999999825;14.505427522807736
4.17;-256.3999999999983;14.50500725689517
4.18;-256.9999999999983;14.504586059776443
4.19;-257.5999999999983;14.504163931451558
4.2;-258.19999999999834;14.50374087197872
4.21;-258.79999999999836;14.503316881299725
4.22;-259.3999999999984;14.502891959472777
4.23;-259.9999999999984;14.50246610643967
4.24;-260.59999999999843;14.50203932225861
4.25;-261.19999999999845;14.5016116069296
4.26;-261.7999999999985;14.50118296039443
4.2700000000000005;-262.3999999999985;14.50075338271131
4.28;-262.9999999999985;14.500322873822029
4.29;-263.59999999999854;14.499891433784796
4.3;-264.19999999999857;14.499459062599612
4.3100000000000005;-264.7999999999986;14.49902576020827
4.32;-265.3999999999986;14.498591526668974
4.33;-265.99999999999864;14.498156361981728
4.34;-266.59999999999866;14.497720266204738
4.3500000000000005;-267.1999999999987;14.49728323916338
4.36;-267.7999999999987;14.496845281032279
4.37;-268.3999999999987;14.496406391695018
4.38;-268.99999999999875;14.495966571268013
4.39;-269.5999999999988;14.49552581963485
4.4;-270.1999999999988;14.495084136853734
4.41;-270.7999999999988;14.494641522924667
4.42;-271.39999999999884;14.494197977905856
4.43;-271.99999999999886;14.493753501680885
4.44;-272.5999999999989;14.493308094307963
4.45;-273.1999999999989;14.492861755845297
4.46;-273.79999999999893;14.492414486176472
